% Si Density=1., Angle=90.deg
% Photon Energy (eV), Atten Length (microns)
7700.00	145.140
7701.00	145.195
7702.00	145.249
7703.00	145.304
7704.00	145.359
7705.00	145.414
7706.00	145.469
7707.00	145.524
7708.00	145.579
7709.00	145.634
7710.00	145.689
7711.00	145.744
7712.00	145.799
7713.00	145.854
7714.00	145.909
7715.00	145.964
7716.00	146.019
7717.00	146.074
7718.00	146.129
7719.00	146.184
7720.00	146.239
7721.00	146.294
7722.00	146.349
7723.00	146.404
7724.00	146.459
7725.00	146.514
7726.00	146.570
7727.00	146.625
7728.00	146.680
7729.00	146.735
7730.00	146.790
7731.00	146.846
7732.00	146.901
7733.00	146.956
7734.00	147.011
7735.00	147.067
7736.00	147.122
7737.00	147.177
7738.00	147.232
7739.00	147.288
7740.00	147.343
7741.00	147.399
7742.00	147.454
7743.00	147.509
7744.00	147.565
7745.00	147.620
7746.00	147.676
7747.00	147.731
7748.00	147.786
7749.00	147.842
7750.00	147.897
7751.00	147.953
7752.00	148.009
7753.00	148.064
7754.00	148.120
7755.00	148.175
7756.00	148.231
7757.00	148.286
7758.00	148.342
7759.00	148.397
7760.00	148.453
7761.00	148.509
7762.00	148.564
7763.00	148.620
7764.00	148.676
7765.00	148.732
7766.00	148.787
7767.00	148.843
7768.00	148.899
7769.00	148.954
7770.00	149.010
7771.00	149.066
7772.00	149.122
7773.00	149.177
7774.00	149.233
7775.00	149.289
7776.00	149.345
7777.00	149.401
7778.00	149.457
7779.00	149.512
7780.00	149.568
7781.00	149.624
7782.00	149.680
7783.00	149.736
7784.00	149.792
7785.00	149.848
7786.00	149.904
7787.00	149.960
7788.00	150.016
7789.00	150.072
7790.00	150.128
7791.00	150.184
7792.00	150.240
7793.00	150.296
7794.00	150.352
7795.00	150.408
7796.00	150.464
7797.00	150.521
7798.00	150.577
7799.00	150.633
7800.00	150.689
7801.00	150.745
7802.00	150.802
7803.00	150.858
7804.00	150.914
7805.00	150.970
7806.00	151.027
7807.00	151.083
7808.00	151.139
7809.00	151.196
7810.00	151.252
7811.00	151.308
7812.00	151.365
7813.00	151.421
7814.00	151.478
7815.00	151.534
7816.00	151.590
7817.00	151.647
7818.00	151.703
7819.00	151.760
7820.00	151.816
7821.00	151.873
7822.00	151.929
7823.00	151.986
7824.00	152.042
7825.00	152.099
7826.00	152.155
7827.00	152.212
7828.00	152.269
7829.00	152.325
7830.00	152.382
7831.00	152.438
7832.00	152.495
7833.00	152.552
7834.00	152.608
7835.00	152.665
7836.00	152.722
7837.00	152.778
7838.00	152.835
7839.00	152.892
7840.00	152.949
7841.00	153.005
7842.00	153.062
7843.00	153.119
7844.00	153.176
7845.00	153.232
7846.00	153.289
7847.00	153.346
7848.00	153.403
7849.00	153.460
7850.00	153.517
7851.00	153.574
7852.00	153.631
7853.00	153.688
7854.00	153.745
7855.00	153.801
7856.00	153.859
7857.00	153.915
7858.00	153.973
7859.00	154.029
7860.00	154.086
7861.00	154.144
7862.00	154.201
7863.00	154.258
7864.00	154.315
7865.00	154.372
7866.00	154.429
7867.00	154.486
7868.00	154.543
7869.00	154.600
7870.00	154.658
7871.00	154.715
7872.00	154.772
7873.00	154.829
7874.00	154.886
7875.00	154.944
7876.00	155.001
7877.00	155.058
7878.00	155.115
7879.00	155.173
7880.00	155.230
7881.00	155.287
7882.00	155.345
7883.00	155.402
7884.00	155.459
7885.00	155.517
7886.00	155.574
7887.00	155.631
7888.00	155.689
7889.00	155.746
7890.00	155.804
7891.00	155.861
7892.00	155.919
7893.00	155.976
7894.00	156.034
7895.00	156.091
7896.00	156.149
7897.00	156.206
7898.00	156.264
7899.00	156.321
7900.00	156.379
7901.00	156.437
7902.00	156.494
7903.00	156.552
7904.00	156.609
7905.00	156.667
7906.00	156.725
7907.00	156.783
7908.00	156.840
7909.00	156.898
7910.00	156.956
7911.00	157.013
7912.00	157.071
7913.00	157.129
7914.00	157.187
7915.00	157.244
7916.00	157.302
7917.00	157.360
7918.00	157.418
7919.00	157.476
7920.00	157.533
7921.00	157.591
7922.00	157.649
7923.00	157.707
7924.00	157.765
7925.00	157.823
7926.00	157.881
7927.00	157.939
7928.00	157.997
7929.00	158.055
7930.00	158.113
7931.00	158.171
7932.00	158.229
7933.00	158.287
7934.00	158.346
7935.00	158.404
7936.00	158.462
7937.00	158.520
7938.00	158.578
7939.00	158.636
7940.00	158.695
7941.00	158.753
7942.00	158.811
7943.00	158.869
7944.00	158.927
7945.00	158.986
7946.00	159.044
7947.00	159.102
7948.00	159.161
7949.00	159.219
7950.00	159.277
7951.00	159.336
7952.00	159.394
7953.00	159.452
7954.00	159.511
7955.00	159.569
7956.00	159.628
7957.00	159.686
7958.00	159.744
7959.00	159.803
7960.00	159.861
7961.00	159.920
7962.00	159.978
7963.00	160.037
7964.00	160.096
7965.00	160.154
7966.00	160.213
7967.00	160.271
7968.00	160.330
7969.00	160.388
7970.00	160.447
7971.00	160.506
7972.00	160.564
7973.00	160.623
7974.00	160.681
7975.00	160.740
7976.00	160.799
7977.00	160.858
7978.00	160.916
7979.00	160.975
7980.00	161.034
7981.00	161.093
7982.00	161.151
7983.00	161.210
7984.00	161.269
7985.00	161.328
7986.00	161.387
7987.00	161.446
7988.00	161.504
7989.00	161.563
7990.00	161.622
7991.00	161.681
7992.00	161.740
7993.00	161.799
7994.00	161.858
7995.00	161.917
7996.00	161.976
7997.00	162.035
7998.00	162.094
7999.00	162.153
8000.00	162.212
8001.00	162.271
8002.00	162.330
8003.00	162.389
8004.00	162.448
8005.00	162.507
8006.00	162.566
8007.00	162.625
8008.00	162.685
8009.00	162.744
8010.00	162.803
8011.00	162.862
8012.00	162.922
8013.00	162.980
8014.00	163.040
8015.00	163.099
8016.00	163.158
8017.00	163.218
8018.00	163.277
8019.00	163.336
8020.00	163.396
8021.00	163.455
8022.00	163.514
8023.00	163.574
8024.00	163.633
8025.00	163.692
8026.00	163.752
8027.00	163.811
8028.00	163.871
8029.00	163.930
8030.00	163.990
8031.00	164.049
8032.00	164.109
8033.00	164.168
8034.00	164.228
8035.00	164.287
8036.00	164.347
8037.00	164.406
8038.00	164.466
8039.00	164.525
8040.00	164.585
8041.00	164.644
8042.00	164.704
8043.00	164.764
8044.00	164.823
8045.00	164.883
8046.00	164.943
8047.00	165.002
8048.00	165.062
8049.00	165.122
8050.00	165.182
8051.00	165.241
8052.00	165.301
8053.00	165.361
8054.00	165.421
8055.00	165.481
8056.00	165.540
8057.00	165.601
8058.00	165.660
8059.00	165.720
8060.00	165.780
8061.00	165.840
8062.00	165.900
8063.00	165.960
8064.00	166.020
8065.00	166.080
8066.00	166.140
8067.00	166.200
8068.00	166.260
8069.00	166.320
8070.00	166.380
8071.00	166.440
8072.00	166.500
8073.00	166.561
8074.00	166.621
8075.00	166.681
8076.00	166.741
8077.00	166.801
8078.00	166.861
8079.00	166.922
8080.00	166.982
8081.00	167.042
8082.00	167.102
8083.00	167.162
8084.00	167.223
8085.00	167.283
8086.00	167.343
8087.00	167.404
8088.00	167.464
8089.00	167.524
8090.00	167.585
8091.00	167.645
8092.00	167.705
8093.00	167.766
8094.00	167.826
8095.00	167.886
8096.00	167.947
8097.00	168.007
8098.00	168.068
8099.00	168.128
8100.00	168.189
8101.00	168.249
8102.00	168.310
8103.00	168.370
8104.00	168.431
8105.00	168.491
8106.00	168.552
8107.00	168.613
8108.00	168.673
8109.00	168.734
8110.00	168.795
8111.00	168.855
8112.00	168.916
8113.00	168.976
8114.00	169.037
8115.00	169.098
8116.00	169.159
8117.00	169.219
8118.00	169.280
8119.00	169.341
8120.00	169.402
8121.00	169.462
8122.00	169.523
8123.00	169.584
8124.00	169.645
8125.00	169.706
8126.00	169.767
8127.00	169.827
8128.00	169.888
8129.00	169.949
8130.00	170.010
8131.00	170.071
8132.00	170.132
8133.00	170.193
8134.00	170.254
8135.00	170.315
8136.00	170.376
8137.00	170.437
8138.00	170.498
8139.00	170.559
8140.00	170.620
8141.00	170.681
8142.00	170.742
8143.00	170.804
8144.00	170.864
8145.00	170.926
8146.00	170.987
8147.00	171.048
8148.00	171.109
8149.00	171.170
8150.00	171.232
8151.00	171.293
8152.00	171.354
8153.00	171.415
8154.00	171.477
8155.00	171.538
8156.00	171.599
8157.00	171.661
8158.00	171.722
8159.00	171.783
8160.00	171.844
8161.00	171.906
8162.00	171.967
8163.00	172.029
8164.00	172.090
8165.00	172.152
8166.00	172.213
8167.00	172.274
8168.00	172.336
8169.00	172.397
8170.00	172.459
8171.00	172.520
8172.00	172.582
8173.00	172.643
8174.00	172.705
8175.00	172.766
8176.00	172.828
8177.00	172.890
8178.00	172.951
8179.00	173.013
8180.00	173.074
8181.00	173.136
8182.00	173.198
8183.00	173.260
8184.00	173.321
8185.00	173.383
8186.00	173.445
8187.00	173.506
8188.00	173.568
8189.00	173.630
8190.00	173.692
8191.00	173.754
8192.00	173.816
8193.00	173.877
8194.00	173.939
8195.00	174.001
8196.00	174.063
8197.00	174.125
8198.00	174.187
8199.00	174.249
8200.00	174.311
